x[km] y[km] z[km] vx[km] vy[km] vz[km]
57762294.339 4136216.707  0.000 -3.415 47.751  0.000 
57319933.837 8251333.630  0.000 -6.812 47.385  0.000 
56585183.964 12324359.901  0.000 -10.174 46.778  0.000 
55561807.306 16334521.897  0.000 -13.485 45.932  0.000 
54255043.850 20261370.395  0.000 -16.726 44.852  0.000 
52671583.531 24084885.972  0.000 -19.881 43.543  0.000 
50819531.218 27785582.092  0.000 -22.935 42.012  0.000 
48708364.317 31344605.320  0.000 -25.872 40.268  0.000 
46348883.246 34743832.131  0.000 -28.676 38.318  0.000 
43753155.056 37965961.808  0.000 -31.334 36.173  0.000 
40934450.517 40994604.932  0.000 -33.831 33.845  0.000 
37907175.018 43814367.010  0.000 -36.155 31.344  0.000 
34686793.678 46410926.796  0.000 -38.295 28.685  0.000 
31289751.064 48771108.934  0.000 -40.240 25.880  0.000 
27733385.983 50882950.517  0.000 -41.979 22.944  0.000 
24035841.788 52735761.268  0.000 -43.504 19.891  0.000 
20215972.714 54320177.028  0.000 -44.807 16.739  0.000 
16293246.726 55628206.310  0.000 -45.882 13.502  0.000 
12287645.413 56653269.690  0.000 -46.723 10.197  0.000 
8219561.461 57390231.873  0.000 -47.326  6.841  0.000 
4109694.237 57835426.294  0.000 -47.689  3.452  0.000 
-21055.959 57986672.154  0.000 -47.809  0.045  0.000 
-4151694.434 57843283.853  0.000 -47.686 -3.360  0.000 
-8261238.881 57406072.782  0.000 -47.321 -6.747  0.000 
-12328825.856 56677341.524  0.000 -46.716 -10.100  0.000 
-16333816.411 55660870.509  0.000 -45.874 -13.400  0.000 
-20255900.358 54361897.237  0.000 -44.800 -16.631  0.000 
-24075198.651 52787088.193  0.000 -43.498 -19.777  0.000 
-27772363.369 50944503.640  0.000 -41.976 -22.821  0.000 
-31328674.828 48843555.487  0.000 -40.242 -25.750  0.000 
-34726135.346 46494958.473  0.000 -38.304 -28.547  0.000 
-37947559.212 43910674.930  0.000 -36.172 -31.199  0.000 
-40976658.434 41103853.431  0.000 -33.857 -33.692  0.000 
-43798123.858 38088761.635  0.000 -31.372 -36.014  0.000 
-46397701.289 34880713.684  0.000 -28.728 -38.153  0.000 
-48762262.247 31495992.520  0.000 -25.938 -40.098  0.000 
-50879869.045 27951767.515  0.000 -23.018 -41.840  0.000 
-52739833.878 24266007.823  0.000 -19.982 -43.370  0.000 
-54332771.671 20457391.886  0.000 -16.845 -44.681  0.000 
-55650646.432 16545213.528  0.000 -13.623 -45.765  0.000 
-56686810.902 12549285.111  0.000 -10.332 -46.617  0.000 
-57436039.340 8489838.201  0.000 -6.989 -47.233  0.000 
-57894553.273 4387422.235  0.000 -3.611 -47.610  0.000 
-58060040.118 262801.673  0.000 -0.215 -47.746  0.000 
-57931664.571 -3863147.880  0.000  3.183 -47.641  0.000 
-57510072.740 -7969544.084  0.000  6.564 -47.294  0.000 
-56797388.971 -12035602.302  0.000  9.912 -46.708  0.000 
-55797205.409 -16040739.578  0.000 13.211 -45.886  0.000 
-54514564.321 -19964677.663  0.000 16.443 -44.831  0.000 
-52955933.275 -23787544.576  0.000 19.591 -43.549  0.000 
-51129173.265 -27489974.241  0.000 22.641 -42.047  0.000 
-49043499.944 -31053203.701  0.000 25.577 -40.331  0.000 
-46709438.130 -34459167.443  0.000 28.384 -38.411  0.000 
-44138769.789 -37690588.386  0.000 31.047 -36.296  0.000 
-41344475.726 -40731065.070  0.000 33.554 -33.996  0.000 
-38340671.260 -43565154.624  0.000 35.891 -31.524  0.000 
-35142536.170 -46178451.101  0.000 38.046 -28.892  0.000 
-31766239.231 -48557658.781  0.000 40.010 -26.112  0.000 
-28228857.700 -50690660.065  0.000 41.771 -23.200  0.000 
-24548292.116 -52566577.616  0.000 43.320 -20.169  0.000 
-20743176.827 -54175830.414  0.000 44.650 -17.035  0.000 
-16832786.657 -55510183.428  0.000 45.754 -13.813  0.000 
-12836940.169 -56562790.632  0.000 46.626 -10.521  0.000 
-8775899.989 -57328231.120  0.000 47.261 -7.174  0.000 
-4670270.666 -57802538.112  0.000 47.656 -3.790  0.000 
-540894.593 -57983220.681  0.000 47.810 -0.386  0.000 
3591253.524 -57869278.045  0.000 47.720  3.021  0.000 
7705173.093 -57461206.329  0.000 47.388  6.414  0.000 
11779944.446 -56760997.726  0.000 46.815  9.775  0.000 
15794835.466 -55772132.024  0.000 46.004 13.087  0.000 
19729407.499 -54499560.515  0.000 44.958 16.334  0.000 
23563619.994 -52949682.324  0.000 43.684 19.498  0.000 
27277933.324 -51130313.263  0.000 42.186 22.564  0.000 
30853409.249 -49050647.330  0.000 40.474 25.516  0.000 
34271808.483 -46721211.018  0.000 38.555 28.338  0.000 
37515684.846 -44153810.662  0.000 36.439 31.017  0.000 
40568475.482 -41361473.064  0.000 34.137 33.538  0.000 
43414586.675 -38358379.677  0.000 31.661 35.889  0.000 
46039474.767 -35159794.693  0.000 29.023 38.058  0.000 
48429721.748 -31781987.381  0.000 26.236 40.033  0.000 
50573105.096 -28242149.079  0.000 23.316 41.804  0.000 
52458661.480 -24558305.268  0.000 20.276 43.362  0.000 
54076743.959 -20749223.186  0.000 17.132 44.699  0.000 
55419072.376 -16834315.463  0.000 13.901 45.808  0.000 
56478776.635 -12833540.292  0.000 10.598 46.684  0.000 
57250432.646 -8767298.674  0.000  7.241 47.322  0.000 
57730090.707 -4656329.268  0.000  3.848 47.718  0.000 
57915296.183 -521601.430  0.000  0.434 47.871  0.000 
57805102.350 3615792.993  0.000 -2.982 47.780  0.000 
57400075.339 7734748.530  0.000 -6.382 47.445  0.000 
56702291.148 11814255.017  0.000 -9.750 46.868  0.000 
55715324.743 15833506.022  0.000 -13.067 46.052  0.000 
54444231.306 19772006.154  0.000 -16.318 45.001  0.000 
52895519.739 23609676.701  0.000 -19.486 43.721  0.000 
51077118.587 27326959.016  0.000 -22.553 42.218  0.000 
48998334.544 30904915.103  0.000 -25.505 40.500  0.000 
46669803.817 34325324.862  0.000 -28.327 38.576  0.000 
44103436.593 37570779.487  0.000 -31.004 36.455  0.000 
41312354.928 40624770.519  0.000 -33.522 34.149  0.000 
38310824.423 43471774.086  0.000 -35.869 31.670  0.000 
35114180.045 46097329.911  0.000 -38.033 29.030  0.000 
31738746.518 48488114.662  0.000 -40.002 26.242  0.000 
28201753.719 50632009.295  0.000 -41.768 23.322  0.000 
24521247.552 52518160.034  0.000 -43.320 20.284  0.000 
20715996.763 54137032.719  0.000 -44.652 17.143  0.000 
16805396.225 55480460.228  0.000 -45.756 13.916  0.000 
12809367.197 56541682.788  0.000 -46.627 10.619  0.000 
8748255.092 57315380.966  0.000 -47.261  7.269  0.000 
4642725.288 57797701.220  0.000 -47.654  3.882  0.000 
513657.542 57986273.897  0.000 -47.805  0.478  0.000 
-3617960.462 57880223.628  0.000 -47.713 -2.929  0.000 
-7731139.874 57480172.102  0.000 -47.379 -6.319  0.000 
-11804997.202 56788233.221  0.000 -46.804 -9.677  0.000 
-15818860.065 55808000.725  0.000 -45.992 -12.984  0.000 
-19752371.652 54544528.353  0.000 -44.946 -16.225  0.000 
-23585593.344 53004302.695  0.000 -43.673 -19.383  0.000 
-27299105.030 51195208.883  0.000 -42.179 -22.441  0.000 
-30874102.592 49126489.349  0.000 -40.471 -25.385  0.000 
-34292492.119 46808695.849  0.000 -38.558 -28.199  0.000 
-37536980.371 44253635.047  0.000 -36.451 -30.870  0.000 
-40591161.084 41474307.935  0.000 -34.159 -33.384  0.000 
-43439596.705 38484843.414  0.000 -31.694 -35.728  0.000 
-46067895.159 35300426.378  0.000 -29.069 -37.891  0.000 
-48462781.314 31937220.673  0.000 -26.298 -39.862  0.000 
-50612162.804 28412287.309  0.000 -23.394 -41.630  0.000 
-52505189.899 24743498.350  0.000 -20.371 -43.188  0.000 
-54132309.174 20949446.895  0.000 -17.246 -44.526  0.000 
-55485310.702 17049353.593  0.000 -14.034 -45.639  0.000 
-56557368.589 13062970.152  0.000 -10.751 -46.521  0.000 
-57343074.647 9010480.304  0.000 -7.414 -47.168  0.000 
-57838465.063 4912398.705  0.000 -4.039 -47.575  0.000 
-58041039.942 789468.249  0.000 -0.644 -47.742  0.000 
-57949775.645 -3337443.702  0.000  2.754 -47.667  0.000 
-57565129.848 -7447449.688  0.000  6.139 -47.351  0.000 
-56889039.322 -11519746.625  0.000  9.492 -46.796  0.000 
-55924910.426 -15533719.873  0.000 12.798 -46.003  0.000 
-54677602.357 -19469046.420  0.000 16.039 -44.977  0.000 
-53153403.243 -23305796.666  0.000 19.199 -43.724  0.000 
-51359999.168 -27024534.348  0.000 22.263 -42.249  0.000 
-49306436.281 -30606414.099  0.000 25.214 -40.560  0.000 
-47003076.143 -34033276.187  0.000 28.038 -38.665  0.000 
-44461544.529 -37287737.962  0.000 30.720 -36.574  0.000 
-41694673.907 -40353281.574  0.000 33.247 -34.297  0.000 
-38716439.851 -43214337.513  0.000 35.606 -31.847  0.000 
-35541891.687 -45856363.578  0.000 37.786 -29.234  0.000 
-32187077.692 -48265918.849  0.000 39.774 -26.472  0.000 
-28668965.181 -50430732.308  0.000 41.561 -23.576  0.000 
-25005355.869 -52339765.739  0.000 43.138 -20.559  0.000 
-21214796.895 -53983270.588  0.000 44.496 -17.437  0.000 
-17316487.945 -55352838.463  0.000 45.629 -14.226  0.000 
-13330184.895 -56441445.020  0.000 46.530 -10.941  0.000 
-9276100.467 -57243486.963  0.000 47.196 -7.601  0.000 
-5174802.357 -57754811.971  0.000 47.621 -4.220  0.000 
-1047109.355 -57972741.341  0.000 47.806 -0.818  0.000 
3086014.047 -57896085.233  0.000 47.747  2.590  0.000 
7203564.012 -57525150.378  0.000 47.446  5.986  0.000 
11284604.163 -56861740.196  0.000 46.903  9.352  0.000 
15308372.275 -55909147.277  0.000 46.121 12.671  0.000 
19254386.317 -54672138.238  0.000 45.105 15.927  0.000 
23102549.290 -53156931.000  0.000 43.859 19.103  0.000 
26833252.318 -51371164.559  0.000 42.390 22.182  0.000 
30427475.437 -49323861.393  0.000 40.704 25.149  0.000 
33866885.561 -47025382.662  0.000 38.811 27.989  0.000 
37133931.091 -44487376.399  0.000 36.719 30.687  0.000 
40211932.661 -41722718.963  0.000 34.440 33.229  0.000 
43085169.523 -38745450.002  0.000 31.985 35.602  0.000 
45738961.112 -35570701.287  0.000 29.367 37.794  0.000 
48159743.317 -32214619.740  0.000 26.598 39.794  0.000 
50335139.067 -28694285.073  0.000 23.694 41.591  0.000 
52254022.815 -25027622.452  0.000 20.668 43.177  0.000 
53906578.570 -21233310.643  0.000 17.537 44.542  0.000 
55284351.153 -17330686.118  0.000 14.315 45.681  0.000 
56380290.376 -13339643.638  0.000 11.021 46.587  0.000 
57188787.917 -9280533.833  0.000  7.670 47.255  0.000 
57705706.652 -5174058.330  0.000  4.280 47.682  0.000 
57928402.307 -1041162.992  0.000  0.868 47.865  0.000 
57855737.286 3097070.157  0.000 -2.548 47.805  0.000 
57488086.605 7219531.737  0.000 -5.951 47.501  0.000 
56827335.903 11305193.965  0.000 -9.324 46.954  0.000 
55876871.526 15333219.160  0.000 -12.649 46.168  0.000 
54641562.767 19283067.217  0.000 -15.909 45.147  0.000 
53127736.333 23134601.480  0.000 -19.088 43.895  0.000 
51343143.211 26868192.426  0.000 -22.169 42.420  0.000 
49296918.106 30464818.624  0.000 -25.137 40.729  0.000 
46999531.691 33906164.422  0.000 -27.976 38.830  0.000 
44462735.932 37174713.845  0.000 -30.671 36.734  0.000 
41699502.799 40253840.211  0.000 -33.211 34.451  0.000 
38723956.710 43127891.001  0.000 -35.580 31.993  0.000 
35551301.076 45782267.528  0.000 -37.767 29.373  0.000 
32197739.368 48203499.028  0.000 -39.762 26.603  0.000 
28680391.131 50379310.765  0.000 -41.554 23.699  0.000 
25017203.407 52298685.836  0.000 -43.134 20.675  0.000 
21226858.056 53951920.357  0.000 -44.494 17.546  0.000 
17328675.465 55330671.782  0.000 -45.627 14.329  0.000 
13342515.178 56428000.114  0.000 -46.528 11.040  0.000 
9288673.960 57238401.835  0.000 -47.192  7.696  0.000 
5187781.840 57757836.406  0.000 -47.616  4.313  0.000 
1060696.682 57983745.229  0.000 -47.797  0.910  0.000 
-3071602.173 57915063.009  0.000 -47.736 -2.497  0.000 
-7188120.650 57552221.501  0.000 -47.433 -5.891  0.000 
-11267956.511 56897145.636  0.000 -46.888 -9.253  0.000 
-15290405.229 55953242.100  0.000 -46.106 -12.568  0.000 
-19235064.626 54725380.451  0.000 -45.090 -15.818  0.000 
-23081937.755 53219866.892  0.000 -43.845 -18.987  0.000 
-26811533.525 51444410.882  0.000 -42.379 -22.059  0.000 
-30404964.572 49408084.758  0.000 -40.697 -25.018  0.000 
-33844041.905 47121276.626  0.000 -38.810 -27.850  0.000 
-37111365.875 44595636.749  0.000 -36.727 -30.540  0.000 
-40190413.031 41844017.750  0.000 -34.457 -33.074  0.000 
-43065618.455 38880408.922  0.000 -32.014 -35.441  0.000 
-45722453.188 35719865.005  0.000 -29.409 -37.627  0.000 
-48147496.394 32378429.778  0.000 -26.655 -39.623  0.000 
-50328501.919 28873054.865  0.000 -23.767 -41.417  0.000 
-52254458.948 25221514.159  0.000 -20.759 -43.002  0.000 
-53915646.479 21442314.274  0.000 -17.646 -44.369  0.000 
-55303681.364 17554601.483  0.000 -14.444 -45.511  0.000 
-56411559.712 13578065.587  0.000 -11.169 -46.422  0.000 
-57233691.450 9532841.171  0.000 -7.838 -47.099  0.000 
-57765927.900 5439406.745  0.000 -4.467 -47.537  0.000 
-58005582.249 1318482.228  0.000 -1.074 -47.734  0.000 
-57951442.804 -2809074.721  0.000  2.325 -47.690  0.000 
-57603778.999 -6922373.026  0.000  5.712 -47.405  0.000 
-56964340.095 -11000592.691  0.000  9.071 -46.879  0.000 
-56036346.612 -15023088.956  0.000 12.383 -46.116  0.000 
-54824474.496 -18969495.628  0.000 15.634 -45.120  0.000 
-53334832.122 -22819827.087  0.000 18.805 -43.895  0.000 
-51574930.210 -26554578.477  0.000 21.882 -42.448  0.000 
-49553644.804 -30154823.607  0.000 24.848 -40.785  0.000 
-47281173.469 -33602310.085  0.000 27.689 -38.916  0.000 
-44768984.909 -36879551.219  0.000 30.390 -36.850  0.000 
-42029762.232 -39969914.242  0.000 32.938 -34.596  0.000 
-39077340.115 -42857704.423  0.000 35.319 -32.166  0.000 
-35926636.162 -45528244.636  0.000 37.522 -29.573  0.000 
-32593576.769 -47967950.007  0.000 39.535 -26.830  0.000 
-29095017.831 -50164397.235  0.000 41.348 -23.949  0.000 
-25448660.679 -52106388.249  0.000 42.952 -20.947  0.000 
-21672963.624 -53784007.846  0.000 44.338 -17.837  0.000 
-17787049.534 -55188675.032  0.000 45.500 -14.636  0.000 
-13810609.891 -56313187.751  0.000 46.431 -11.360  0.000 
-9763805.781 -57151760.781  0.000 47.126 -8.026  0.000 
-5667166.311 -57700056.566  0.000 47.583 -4.650  0.000 
-1541484.934 -57955208.795  0.000 47.798 -1.249  0.000 
2592285.784 -57915838.584  0.000 47.770  2.159  0.000 
6713140.446 -57582063.149  0.000 47.499  5.558  0.000 
10800127.614 -56955496.877  0.000 46.987  8.928  0.000 
14832456.551 -56039244.779  0.000 46.235 12.255  0.000 
18789603.396 -54837888.297  0.000 45.249 15.520  0.000 
22651416.185 -53357463.534  0.000 44.031 18.706  0.000 
26398218.207 -51605431.959  0.000 42.590 21.799  0.000 
30010909.118 -49590643.732  0.000 40.931 24.781  0.000 
33471063.302 -47323293.788  0.000 39.063 27.638  0.000 
36761024.937 -44814870.903  0.000 36.996 30.354  0.000 
39863999.259 -42078099.960  0.000 34.740 32.917  0.000 
42764139.525 -39126877.719  0.000 32.307 35.312  0.000 
45446629.214 -35976202.384  0.000 29.708 37.528  0.000 
47897758.991 -32642097.343  0.000 26.958 39.553  0.000 
50104998.027 -29141529.451  0.000 24.070 41.376  0.000 
52057059.273 -25492322.290  0.000 21.059 42.989  0.000 
53743958.319 -21713064.854  0.000 17.940 44.383  0.000 
55157065.517 -17823016.128  0.000 14.729 45.550  0.000 
56289151.062 -13842006.085  0.000 11.443 46.485  0.000 
57134422.793 -9790333.607  0.000  8.098 47.184  0.000 
57688556.478 -5688661.894  0.000  4.712 47.641  0.000 
57948718.440 -1557911.906  0.000  1.302 47.856  0.000 
57913580.364 2580845.579  0.000 -2.115 47.826  0.000 
57583326.229 6706498.709  0.000 -5.520 47.553  0.000 
56959651.302 10798003.521  0.000 -8.898 47.037  0.000 
56045753.226 14834492.529  0.000 -12.230 46.281  0.000 
54846315.228 18795382.366  0.000 -15.499 45.289  0.000 
53367481.562 22660479.870  0.000 -18.689 44.067  0.000 
51616825.317 26410086.080  0.000 -21.783 42.619  0.000 
49603308.779 30025097.560  0.000 -24.766 40.955  0.000 
47337236.570 33487104.519  0.000 -27.622 39.082  0.000 
44830201.834 36778485.209  0.000 -30.337 37.010  0.000 
42095025.759 39882496.099  0.000 -32.896 34.750  0.000 
39145690.798 42783357.361  0.000 -35.288 32.314  0.000 
35997267.940 45466333.216  0.000 -37.499 29.713  0.000 
32665838.445 47917806.739  0.000 -39.519 26.962  0.000 
29168410.475 50125348.734  0.000 -41.337 24.074  0.000 
25522831.083 52077780.349  0.000 -42.944 21.064  0.000 
21747694.021 53765229.105  0.000 -44.332 17.948  0.000 
17862243.895 55179178.090  0.000 -45.494 14.741  0.000 
13886277.152 56312508.080  0.000 -46.425 11.460  0.000 
9840040.449 57159532.390  0.000 -47.119  8.122  0.000 
5744126.935 57716024.318  0.000 -47.573  4.744  0.000 
1619370.976 57979237.060  0.000 -47.786  1.342  0.000 
-2513258.100 57947916.037  0.000 -47.755 -2.066  0.000 
-6632762.727 57622303.596  0.000 -47.482 -5.462  0.000 
-10718223.714 57004136.100  0.000 -46.968 -8.829  0.000 
-14748906.229 56096633.457  0.000 -46.216 -12.151  0.000 
-18704364.622 54904481.173  0.000 -45.229 -15.410  0.000 
-22564545.546 53433805.043  0.000 -44.013 -18.590  0.000 
-26309888.891 51692138.663  0.000 -42.575 -21.675  0.000 
-29921426.027 49688383.928  0.000 -40.920 -24.649  0.000 
-33380874.873 47432764.757  0.000 -39.058 -27.498  0.000 
-36670731.351 44936774.301  0.000 -36.999 -30.206  0.000 
-39774356.778 42213115.912  0.000 -34.753 -32.761  0.000 
-42676060.787 39275638.191  0.000 -32.331 -35.150  0.000 
-45361179.389 36139264.450  0.000 -29.746 -37.359  0.000 
-47816147.813 32819916.947  0.000 -27.010 -39.380  0.000 
-50028567.788 29334436.293  0.000 -24.138 -41.200  0.000 
-51987268.955 25700496.404  0.000 -21.145 -42.812  0.000 
-53682364.132 21936515.457  0.000 -18.044 -44.207  0.000 
-55105298.185 18061563.252  0.000 -14.853 -45.378  0.000 
-56248890.273 14095265.456  0.000 -11.586 -46.319  0.000 
-57107369.291 10057705.183  0.000 -8.261 -47.025  0.000 
-57676402.338 5969322.379  0.000 -4.894 -47.494  0.000 
-57953116.096 1850811.509  0.000 -1.503 -47.722  0.000 
-57936111.009 -2276981.984  0.000  1.896 -47.708  0.000 
-57625468.215 -6393165.937  0.000  5.286 -47.453  0.000 
-57022749.187 -10476905.956  0.000  8.649 -46.958  0.000 
-56130988.084 -14507529.637  0.000 11.968 -46.225  0.000 
-54954676.860 -18464630.019  0.000 15.227 -45.258  0.000 
-53499743.172 -22328167.776  0.000 18.409 -44.062  0.000 
-51773521.207 -26078571.669  0.000 21.499 -42.643  0.000 
-49784715.543 -29696836.752  0.000 24.480 -41.007  0.000 
-47543358.215 -33164619.887  0.000 27.338 -39.164  0.000 
-45060759.165 -36464332.084  0.000 30.057 -37.122  0.000 
-42349450.319 -39579227.214  0.000 32.625 -34.891  0.000 
-39423123.520 -42493486.673  0.000 35.028 -32.483  0.000 
-36296562.624 -45192299.563  0.000 37.254 -29.910  0.000 
-32985570.049 -47661937.988  0.000 39.292 -27.185  0.000 
-29506888.138 -49889827.087  0.000 41.131 -24.321  0.000 
-25878115.679 -51864609.435  0.000 42.762 -21.333  0.000 
-22117619.991 -53576203.489  0.000 44.176 -18.236  0.000 
-18244444.994 -55015855.748  0.000 45.367 -15.046  0.000 
-14278215.679 -56176186.356  0.000 46.328 -11.779  0.000 
-10239039.468 -57051227.899  0.000 47.053 -8.451  0.000 
-6147404.919 -57636457.156  0.000 47.540 -5.079  0.000 
-2024078.291 -57928819.624  0.000 47.786 -1.680  0.000 
2110001.536 -57926746.667  0.000 47.789  1.728  0.000 
6233829.248 -57630165.156  0.000 47.549  5.129  0.000 
10326439.863 -57040499.525  0.000 47.067  8.504  0.000 
14367015.533 -56160666.197  0.000 46.346 11.837  0.000 
18334991.830 -54995060.378  0.000 45.389 15.111  0.000 
22210162.969 -53549535.238  0.000 44.200 18.308  0.000 
25972785.422 -51831373.584  0.000 42.787 21.414  0.000 
29603679.370 -49849252.099  0.000 41.155 24.411  0.000 
33084327.458 -47613198.342  0.000 39.313 27.284  0.000 
36396970.332 -45134540.682  0.000 37.271 30.019  0.000 
39524698.432 -42425851.404  0.000 35.038 32.602  0.000 
42451539.545 -39500883.273  0.000 32.626 35.019  0.000 
45162541.652 -36374499.860  0.000 30.048 37.259  0.000 
47643850.593 -33062599.975  0.000 27.316 39.308  0.000 
49882782.139 -29582036.607  0.000 24.445 41.158  0.000 
51867888.064 -25950530.774  0.000 21.448 42.798  0.000 
